#Taken from https://cds.cern.ch/record/1704291/files/3295c4a11790129b284356ea8fc53bbb.pdf Figure 15
pT (GeV)	cot(theta) res (10^-3)
0.1972001484388952 50.86534779371106
0.2959158282139255 40.60342707443905
0.45529359340883524 27.372147304169502
0.6752234281553924 17.940007900697424
0.9889824458802925 12.615876565922013
1.5031243254581481 8.38585600165074
2.2014223123169083 6.065611880730874
3.3042925510404553 4.387345487499562
4.899144909328277 3.1734309423641225
7.352417723762552 2.428404902250971
10.900322507915668 1.8066779075568442
16.354416969562706 1.525760047357916
24.233486558801143 1.382524330033508
36.35078228180956 1.2705025327903732
55.18623740697212 1.2885217184405016
81.75796467155357 1.252735334395754
149.21008065867284 1.32533039765633

