#Taken from https://cds.cern.ch/record/1704291/files/3295c4a11790129b284356ea8fc53bbb.pdf Figure 15
pT (GeV)	d0 res (micrometres)
0.20083471790564844 452.40457932613947
0.30148970489611304 291.94136200387544
0.45263437640404014 195.20387376982524
0.6796381008821941 136.8506254564935
1.007806258980795 90.42701614883505
1.5133340445301189 64.91414355749879
2.24469940128635 47.715913110696526
3.330365126784039 38.55833319800441
5.002186414324085 30.42919676006167
7.512058736970818 22.633711927240014
10.87728221737101 20.833683723226283
16.333458286076493 14.955715599584769
24.53508243235875 12.229356319767932
36.86908008899408 11.5264788599552
54.04188863928693 10.11908835964587
82.22849930947214 10
148.70990047641556 9.537497723485272
