#Taken from https://cds.cern.ch/record/1704291/files/3295c4a11790129b284356ea8fc53bbb.pdf Figure 15
pT (GeV)	phi res (10^-3 radians)
0.19684194472866107 17.652623931070647
0.2955209235202886 13.204769899652044
0.44366873309786087 8.342939093434515
0.6660846290809157 5.691682184668615
1 3.7081919804320207
1.4829380021071845 2.3790265400584927
2.2263507328691667 1.7795936835964987
3.342444241569055 1.1594243690759105
4.956637585747078 0.8672537123640394
7.350386238577155 0.6487089815169846
11.03521372159487 0.48525663188757856
16.56728475602508 0.3980091424494682
24.56825615644066 0.3023176187316331
36.884586558228634 0.2368018149807461
55.37522553121087 0.21296419615435339
82.11802631548856 0.1915183267188902
151.99110829529363 0.18327431470525812
