#Taken from https://cds.cern.ch/record/1704291/files/3295c4a11790129b284356ea8fc53bbb.pdf Figure 15
pT (GeV)	z0 res (micrometres)
0.19773532788468892 358.225230903341
0.30454687257869456 252.9430028392785
0.4464155924996785 193.7107186810077
0.6626640192139424 133.6424978943128
1.0205864450271 95.46603085723048
1.5331205830311334 76.58275441763948
2.1656004591302094 60.72608943602788
3.375155247692408 51.028002041707936
5.007164491343704 43.88512910639089
7.335810091532618 40.93461217244009
11.154967564190763 34.39726636295692
16.96034427675399 30.276684295671423
24.239009987027494 30.276684295671423
36.838854672021206 30.987310157265693
54.63143196082804 30.629936447919473
82.04165306086537 27.593452653876096
148.1191237990939 30.276684295671423
