#Taken from https://cds.cern.ch/record/1704291/files/3295c4a11790129b284356ea8fc53bbb.pdf Figure 15
pT (GeV)	cos(theta) res (10^-3)
0.19535735452495848 17.197844036793725
0.29329371211164146 11.43151986925454
0.4404101185756811 7.081950798589005
0.6691397343192008 5.343536080597329
0.9924426110177709 3.4049449261977305
1.5078169595959867 2.605566373066644
2.235832926523767 1.8066779075568442
3.3559422211488594 1.3067964652116122
4.913701458794414 1.0431544711253269
7.373709683900979 0.8210565852507767
11.066133942387612 0.6282972192749393
16.403009914660966 0.5015402711363549
24.60581285814987 0.4544565369491261
36.90650807375338 0.42956364902673005
54.017458733679604 0.39475739574862123
84.04615289172169 0.40035613059343345
151.5651621189773 0.3731345323723429
