#Taken from https://cds.cern.ch/record/1704291/files/3295c4a11790129b284356ea8fc53bbb.pdf Figure 15
pT (GeV)	d0 res (micrometres)
0.19822564105057003 344.56809693182
0.30501232423978825 222.35336271616424
0.4580828768210257 169.35256303466136
0.6707875203523604 103.00385301160192
1.0072626381798568 73.94258028336775
1.4941956418194005 56.31740997940037
2.2166635157859376 43.92113169545052
3.329308284492862 34.25345395171258
4.939553242912719 27.67957279971992
7.512535595995168 23.176004173953647
11.008914230102956 18.507688659503806
16.5368909263138 15.13382076339324
24.84460835667673 13.129613082422347
36.870250279162434 11.663745805947674
54.725398874975554 10.99337658866237
81.2453049052106 11.256772310424665
146.93646094593996 10.863999006573659
