#Taken from https://cds.cern.ch/record/1704291/files/3295c4a11790129b284356ea8fc53bbb.pdf Figure 15
pT (GeV)	phi res (10^-3 radians)
0.19684194472866107 9.553062135080282
0.29918225338310084 5.676517700852208
0.44916552690297307 4.117847241838605
0.6660846290809157 2.5619696170337374
1 1.6949707590800709
1.5013107289081735 1.2485821224793734
2.2263507328691667 0.8919096352622959
3.30154010779087 0.6569887489668544
5.01804740064497 0.49907290557464734
7.441453186791599 0.3733083775398735
11.03521372159487 0.2792360458458279
16.772543638206344 0.2025711250484285
24.56825615644066 0.1360807804713235
37.341564821000794 0.11509846154838847
55.37522553121087 0.0958605527085017
83.13542020571666 0.08233064111825403
124.81209830713176 0.08371752862081412
