#Taken from https://cds.cern.ch/record/1704291/files/3295c4a11790129b284356ea8fc53bbb.pdf Figure 15
pT (GeV)	z0 res (micrometres)
0.19984395291481816 678.0071236706578
0.3002978549139375 484.3268422066778
0.4569501267328324 315.31203986851034
0.6615756006788747 247.14231092976283
0.9944943918464232 153.6023941263548
1.4941569072919865 116.27629468287674
2.216979420202664 94.36503017692428
3.372120797406322 71.43388694569825
4.9419010441539895 59.333470024800675
7.330806219733436 52.83502464752111
10.87720201494656 42.87872011109153
16.74135978921745 39.07864948782929
24.526381599606353 36.87657938192453
36.82286191114014 36.45128528912224
55.29799152597801 32.837704920104215
80.99995147141534 32.837704920104215
149.95423234152517 30.276684295671423
